energy epsilon1 epsilon2
0.1 2.076248637005371 6.6299496524043e-11
0.11 2.076370637938954 5.234579231845301e-10
0.12 2.076504341255578 3.0030686617761e-11
0.13 2.0766497702322355 6.608014410003001e-11
0.14 2.0768069502827564 5.847020013351399e-12
0.15 2.0769759106214343 1.1872344588025e-09
0.16 2.077156661774313 3.3116088786599e-08
0.17 2.0773492514679064 2.3568176719974e-09
0.18 2.077553728296487 1.429284994264e-09
0.19 2.0777701120299112 2.5382778553840002e-11
0.2 2.077998445162729 9.673356893438e-10
0.21 2.0782387579465045 2.2538934016954e-08
0.22 2.078491113416793 9.5549342872738e-10
0.23 2.0787555630781 4.5672024813334e-08
0.24 2.0790320163892577 2.6361560029319e-07
0.25 2.079320639011211 6.9213228214483e-08
0.26 2.0796216183013705 2.5334852580615e-09
0.27 2.0799349224227845 9.683342734729802e-10
0.28 2.0802604164532195 3.1623105134094e-07
0.29 2.0805982883514464 7.6457153782704e-08
0.3 2.0809488004512713 7.680909863406101e-10
0.31 2.0813119052430458 1.1357077354599001e-10
0.32 2.0816877582675644 9.6054396658083e-12
0.33 2.082076641191688 3.1760484543645e-07
0.34 2.0824760255168515 4.7391692810265e-06
0.35 2.0828885375374884 4.9767661045581e-08
0.36 2.083315589688023 1.2171838165924e-06
0.37 2.0837551194262622 9.1556468219092e-08
0.38 2.0842081649416686 2.691042650789e-08
0.39 2.084674253396042 1.3620367824913002e-10
0.4 2.085153562837413 8.1887331178113e-09
0.41 2.0856462274462997 4.6981094999342e-10
0.42 2.0861523985226516 4.2048823562618e-09
0.43 2.08667200021741 3.3495535643348e-07
0.44 2.087205284791723 6.1445806552862e-08
0.45 2.0877525740723417 4.3354703086179003e-10
0.46 2.088313787725511 1.2749359424665e-07
0.47 2.088888855732533 4.3143479572731e-07
0.48 2.089478192236282 6.0505110057659e-10
0.49 2.090082067781749 1.9565340363539e-14
0.5 2.0907003889208373 6.806473421683399e-12
0.51 2.0913333428870984 6.330533464594801e-10
0.52 2.091981094972402 2.0341312103327e-11
0.53 2.0926438116912744 2.8574492109314e-13
0.54 2.093321664018563 4.5759499393639e-13
0.55 2.094014829702528 1.3214572488496e-11
0.56 2.094723493421512 2.4505359023334e-10
0.57 2.0954478466749005 1.4841723722115e-09
0.58 2.096188089679027 1.1602558274313e-09
0.59 2.0969444319585437 2.1361437035084e-11
0.6 2.097717090470206 6.6834465767364e-13
0.61 2.0985062911267196 2.3905710626929e-10
0.62 2.0993122697111053 1.3231927709174e-09
0.63 2.1001352736846988 3.1515143510897e-10
0.64 2.1009755605256766 1.9400149000293e-09
0.65 2.101833401494367 1.768598221033e-10
0.66 2.102709070722283 1.7103149337576e-08
0.67 2.1036028695483817 6.7947648414348e-09
0.68 2.104515127601639 4.999127687837e-10
0.69 2.105446196426702 1.1969466549487e-11
0.7 2.1063965813199603 1.4869003861682e-08
0.71 2.107365346424916 2.2351662077736e-06
0.72 2.108353895548979 1.3063135525387e-07
0.73 2.1093635583662116 2.8418723969103e-07
0.74 2.1103936128162557 4.7707708863672e-08
0.75 2.111444740231401 4.9851479052388e-09
0.76 2.112517293008214 8.2442487580711e-10
0.77 2.1136117537778008 3.5827909030432997e-12
0.78 2.114728631174149 1.1531036292464e-10
0.79 2.1158684567789545 8.389742209787801e-11
0.8 2.117031786864136 1.0986273750205e-08
0.81 2.1182191949078204 4.5024068972359e-08
0.82 2.1194313334511383 1.8814613913802e-08
0.83 2.120668869086935 6.3389385325057e-08
0.84 2.121932551500971 8.6438421031359e-09
0.85 2.123223238121361 1.2842075829526e-09
0.86 2.1245419091670716 3.2305459983266e-09
0.87 2.1258898962798214 3.0766931001521e-07
0.88 2.1272661524526275 4.9720618773568e-06
0.89 2.128674717939074 2.9168146817672e-06
0.9 2.13011416929621 1.7219334177517e-05
0.91 2.1315648852375015 4.8074869397646e-05
0.92 2.1330571450565827 2.9649603428776e-06
0.93 2.1346084003403205 3.6928463418508e-07
0.94 2.1362022941079513 4.0803743277364e-07
0.95 2.137820280114254 5.9687939652665e-05
0.96 2.139414462316978 0.00013981625531799
0.97 2.1410833266619065 6.3912136394862e-06
0.98 2.142877116103086 6.1911998440408e-07
0.99 2.144788102458663 5.4450172838762e-06
1.0 2.146382968210715 0.00079339038139686
1.01 2.1479327868222966 0.00020899608676189
1.02 2.149926459987719 3.9670903943315e-06
1.03 2.1518963465476064 0.00018932214859708
1.04 2.153877733953921 5.8848795771821e-06
1.05 2.1559977008573368 3.466734780573e-07
1.06 2.1581291484486447 5.5461523172285e-05
1.07 2.1603192688816173 3.8830890918127e-06
1.08 2.162585086518552 3.9856203192656e-05
1.09 2.1649176999092323 1.8016871709067e-05
1.1 2.16736318450073 1.8157586090113e-05
1.11 2.169854799611319 0.0001762746618741
1.12 2.1722412168673015 0.00042611953893104
1.13 2.1747872065595337 4.5702983935149e-05
1.14 2.177616760597958 2.3319923896343e-05
1.15 2.18051979431671 4.379472988033e-05
1.16 2.1835491426799973 1.9928274439951e-05
1.17 2.186766362509768 6.1638404086643e-06
1.18 2.1902434424705373 1.457849933107e-07
1.19 2.194229735037589 1.4223697021666e-05
1.2 2.198360625360898 0.0016115949855823
1.21 2.20001728430709 0.0062867006028948
1.22 2.201448109534033 0.00285884436761
1.23 2.2055161972473005 0.0011341754748446
1.24 2.2109263317690635 0.00010018208453132
1.25 2.2148154563193323 0.0042109973568354
1.26 2.218729071497532 0.00079657840062883
1.27 2.2246693965616813 0.0016241535917291
1.28 2.2296817289851942 0.0039036917604822
1.29 2.233039886158554 0.005974288893796
1.3 2.237870725396553 0.0016630450698981
1.31 2.2457023713710305 0.0005103318139523
1.32 2.2545923401374726 0.00086437730444984
1.33 2.2623938716772223 0.0050299177386076
1.34 2.2717330883019713 0.0017981417816306
1.35 2.2882110524209267 0.00012756557896896
1.36 2.3035566917779775 0.0184825581628
1.37 2.3292595875934303 0.018673924316187
1.38 2.2864844954001553 0.16940488289513
1.39 2.2420029510541446 0.024112649076226
1.4 2.2728737522775813 0.010866291926509
1.41 2.2971223322760697 0.0049620731239132
1.42 2.320935174464603 0.0049736272348091
1.43 2.34968127483428 0.0039075780059922
1.44 2.3705483763066577 0.035407382063708
1.45 2.4104108787098277 0.0081199886190152
1.46 2.4104068956194844 0.14732543554406
1.47 2.4272747902975254 0.031116577089877
1.48 2.5145613285379214 0.13115443124396
1.49 2.330921512474831 0.57733681700201
1.5 2.205620807934914 0.014648233004667
1.51 2.356646978379218 0.007558201515991
1.52 2.401091357932311 0.12871975970932
1.53 2.4492842249114406 0.014967797371424
1.54 2.618496539563417 0.017168412133765
1.55 2.5278297852162828 0.58250559848908
1.56 2.4666310004636385 0.054380428069638
1.57 2.8311606693015756 0.03515840174537
1.58 2.5736237526210903 1.3574280896909
1.59 2.3322461302400748 0.22221598451557
1.6 2.655591051487168 0.61516183183648
1.61 2.0954149164247804 1.9135737114213
1.62 1.482302718834083 0.63086233009321
1.63 1.7332666351717414 0.0036887258090146
1.64 2.0073103211738337 0.21460341696552
1.65 1.9993373284438873 0.39571900200789
1.66 2.032589147245378 0.15705309571237
1.67 2.0663365128042024 0.38817968599411
1.68 2.2518066564400203 0.026883590712413
1.69 1.9718668047038654 1.3355402070571
1.7 1.5468463166971222 0.22446315431803
1.71 1.7423304737938812 8.2691775638853e-05
1.72 1.9031397876666052 6.1474760200052e-05
1.73 2.0272997059253397 3.7619495203813e-05
1.74 2.13198086952906 0.11420620988774
1.75 2.0255230617091713 0.47896996148168
1.76 1.8540202988277448 0.25271055399385
1.77 1.9226072365283848 0.0025238666578743
1.78 1.9280388419333063 0.27002255849763
1.79 1.8814654565686593 0.023151268650198
1.8 1.9488069802311911 0.0018052831936512
1.81 1.9924685009889471 1.5805132145075e-05
1.82 2.0258635127443236 0.00013034885088533
1.83 2.0454406053614336 0.018336528428075
1.84 2.0634914113919987 0.00095977279035197
1.85 2.0949465467533925 0.0001932086256082
1.86 2.11725609658955 0.036594290578374
1.87 2.0913970812065505 0.10017914400948
1.88 2.0841156601280213 0.00045360567648179
1.89 2.1248199893452906 5.2236926662356e-06
1.9 2.168157233789631 0.0015258844483675
1.91 2.1581764373132737 0.11718442841307
1.92 2.152695720031033 0.013116447905057
1.93 2.2436821176974173 0.00059136247230754
1.94 2.1739401972640766 0.35316510980579
1.95 2.0617202541763757 0.10697501571207
1.96 2.067399085383419 0.1074226530316
1.97 2.092021441189132 0.0019779067018685
1.98 2.127604979975018 0.048095354987298
1.99 2.15586844213878 0.00075141533628168
2.0 2.205230721444452 0.036094125651023
2.01 2.181128631844182 0.16361266708404
2.02 2.154220144094041 0.067838751108652
2.03 2.183467614053673 0.079273110259731
2.04 2.1991478948245273 0.12221643856909
2.05 2.106268148919915 0.28562528223163
2.06 2.0637271467293465 0.0019961227749568
2.07 2.155403130392538 0.0017862765750374
2.08 2.1621516919392074 0.12001751914729
2.09 2.1721958818465605 0.0079174173078519
2.1 2.28135256586173 0.020146168301323
2.11 2.130175626150039 0.52448674672984
2.12 1.9763209510136435 0.016266288504551
2.13 2.0681030151020536 0.00017888409287933
2.14 2.110417024489267 7.2816026634958e-08
2.15 2.136545901776489 2.4263010165965e-05
2.16 2.156582055226332 7.3383864916345e-05
2.17 2.173967266719704 0.0002988825579781
2.18 2.190370726253901 0.00058467003209889
2.19 2.2070807787158686 0.00074786729794977
2.2 2.2261289051619584 1.2087495669476e-06
2.21 2.2503041118236635 1.5638540688758e-05
2.22 2.2866695073202616 1.1698044361186e-05
2.23 2.3553531395128453 0.013636096420423
2.24 2.2830315188843673 0.32012337972233
2.25 2.2560305670118708 0.007656812417212
2.26 2.207251285837516 0.37309583093191
2.27 2.123903411570392 0.021311653008515
2.28 2.221220348390222 9.6588538811808e-07
2.29 2.3224303673877 0.00013075515961084
2.3 2.3454711318865415 0.22012260216738
2.31 2.372815793094517 0.17112488367361
2.32 2.0933567127131396 0.8575158813161
2.33 1.8696332330928898 0.0053574775119291
2.34 2.0305905095055437 0.00015593320272986
2.35 2.0974559150295415 1.6055885255146e-06
2.36 2.142679773825219 2.1724525830169e-05
2.37 2.183747899033623 0.013234835608427
2.38 2.176135914451763 0.10640621171304
2.39 2.1365907754161935 0.073605722435038
2.4 2.1445268324151465 0.00011452474281946
2.41 2.174836502016517 1.0960683642828e-05
2.42 2.1939548954988406 1.1256278590532e-07
2.43 2.209968118660779 2.3596572694073e-05
2.44 2.2252711021953195 5.5638070271582e-06
2.45 2.2414182893428434 2.3504323646039e-05
2.46 2.2604079290730037 6.9283893535554e-06
2.47 2.286760469400088 1.476259696359e-07
2.48 2.339279961491596 0.00017314213738445
2.49 2.305532975640525 0.20736598805878
2.5 2.2409671541253715 0.083319335888653
2.51 2.298360781909751 0.0005583306028345
2.52 2.4361118871684804 0.034131728088041
2.53 2.2050318290645525 0.74335257100799
2.54 1.9841910741945639 0.0054794922468355
2.55 2.1125267847806652 2.5389612278547e-05
2.56 2.162131441109837 0.0016636867218363
2.57 2.1909275524582434 4.9428859598934e-05
2.58 2.2126058861841162 0.00019386178342755
2.59 2.2310430083262105 0.00016320296937397
2.6 2.2494785603027214 0.00014986061130762
2.61 2.2713426351473096 0.00078155480940277
2.62 2.308077373876336 5.0502958310119e-05
2.63 2.352998545900746 0.061206956615782
2.64 2.2271513909847274 0.35652358255291
2.65 2.129729292196768 0.0018609514463864
2.66 2.1952974180977582 0.00082360881076343
2.67 2.222814685979933 2.6614243032811e-05
2.68 2.2373762175054526 0.0065554505594498
2.69 2.248258034389833 0.00056704499585645
2.7 2.2561877360245686 0.0086563000088119
2.71 2.261074041571164 0.0029017389847607
2.72 2.268931015975204 0.00054652706208246
2.73 2.275604282297754 0.0020028881212261
2.74 2.281518965434734 3.853921681141e-06
2.75 2.287807100063532 1.0031518516462e-09
2.76 2.2935229475577557 7.9472550836927e-08
2.77 2.298928749443023 2.8851081421687e-08
2.78 2.3041086057570235 2.4086596574703e-05
2.79 2.3090986567319525 4.8534269867724e-05
2.8 2.3139691980359665 3.7755701190382e-08
2.81 2.318756297055192 1.8188171559781e-11
2.82 2.323460530566372 1.60210149678e-07
2.83 2.3280501325246106 9.1216382055565e-05
2.84 2.332569158893479 2.273042544344e-05
2.85 2.3370828835251523 2.0491469763843e-09
2.86 2.341558726007913 1.6771058446108002e-10
2.87 2.3460001550025344 1.1010691777245001e-11
2.88 2.350421379844888 1.2512182106168e-08
2.89 2.354834638549358 6.5400725140603e-06
2.9 2.3592762629194874 1.1515837017415e-06
2.91 2.363888681447312 6.2803059930259e-06
2.92 2.3677042221540376 0.0016887280855709
2.93 2.37145792163037 0.00015295411696917
2.94 2.376063480791853 7.2675388294595e-06
2.95 2.3803185566287084 0.00051305904160549
2.96 2.3845080302326256 2.2370177006961e-05
2.97 2.3889252277602835 4.9088920649412e-10
2.98 2.393297858181537 1.3074886274941e-08
2.99 2.397663815457808 1.1870193874485e-07
3.0 2.402043290142874 1.6660525881681e-09
3.01 2.4064541012035763 1.0642240419615e-07
3.02 2.4109229308017057 3.941745804793e-06
3.03 2.415524159069097 1.1183236281133e-06
3.04 2.4205787209457266 2.052631341774e-06
3.05 2.4242927772116354 0.0034327464375134
3.06 2.4268730660156153 0.0025163702987004
3.07 2.431152123870641 0.00013008730336789
3.08 2.436413216437643 0.00032757301881367
3.09 2.440111737152454 0.0026919004041988
3.1 2.4438668015771454 1.3430497458844e-05
3.11 2.4488492615251705 1.5333445945469e-06
3.12 2.453516201099616 5.8087239755341e-05
3.13 2.458105594298676 2.7918016443556e-05
3.14 2.4626968173497 2.4930661878324e-05
3.15 2.4673031003486376 3.1633953450247e-06
3.16 2.471953001163842 2.159624407371e-06
3.17 2.476523645799287 0.00021361121825093
3.18 2.4811211553401447 2.5476357203691e-05
3.19 2.485812085950795 0.00011664143258734
3.2 2.4904106869315523 0.00022730929751542
3.21 2.4950829289738623 6.1692632154832e-06
3.22 2.499877646365629 4.8158371269963e-06
3.23 2.5046836010102336 1.5136218855803e-09
3.24 2.509537840785246 2.4044364667535e-07
3.25 2.5143399372487045 0.00018775516256223
3.26 2.5191579933269312 5.0333597843536e-05
3.27 2.5241190311735657 5.5691026194856e-06
3.28 2.529054608199785 0.00015898020846366
3.29 2.534051590772764 2.3291097967981e-06
3.3 2.5390778572852555 0.00022648911188383
3.31 2.544036209636184 0.00020755608642487
3.32 2.5491445355598406 1.2788777141011e-05
3.33 2.554390396143979 9.692042969661801e-10
3.34 2.5597084143134095 1.725437122604e-08
3.35 2.565205013401335 3.6688390124092e-05
3.36 2.5703773536913377 0.0011124827129834
3.37 2.574888543209271 0.0015266664933193
3.38 2.5799780176604017 5.3819870401375e-06
3.39 2.5857327281462794 4.872392945196e-08
3.4 2.5913580773987888 1.4012840192189e-06
3.41 2.5969825110831017 2.0566276433918e-05
3.42 2.6026504896996574 1.4593749183079e-06
3.43 2.608387674273343 6.2829679323515e-07
3.44 2.614198305784738 2.3355984901299e-08
3.45 2.6201195473523327 3.1032348937271e-06
3.46 2.6259388853255405 0.00038288837356503
3.47 2.6318257092567747 3.9162467518814e-05
3.48 2.6379811548679557 9.444677851094e-06
3.49 2.644214214628749 1.8390442134984e-07
3.5 2.65054779680741 1.4834674506821e-06
3.51 2.657003358157511 1.6603034096551e-07
3.52 2.6636178621170523 1.7415440349075e-07
3.53 2.6704321684344325 6.0501010713694e-05
3.54 2.6774336747103353 0.00036814730507659
3.55 2.683834072509991 0.0018166171832784
3.56 2.6906211436936434 0.00029056469492257
3.57 2.6977626435058113 0.0014954309800862
3.58 2.7051017487993905 8.6240142841564e-05
3.59 2.7135340312368044 1.3329690136905e-07
3.6 2.7224408242996803 0.00046915492857228
3.61 2.729750376349161 0.0043462525246742
3.62 2.7381694023478076 1.3643706769115e-05
3.63 2.7508497086960673 0.00019114855912725
3.64 2.7562484645878382 0.016176301087418
3.65 2.7627782688450786 0.00046017399509366
3.66 2.7792859356089124 0.00016335082018166
3.67 2.7995121580142124 0.00010624012890364
3.68 2.83731975569981 0.00026796844459866
3.69 2.823992010744472 0.1355407278723
3.7 2.752881627236279 0.12384036179133
3.71 2.7472051541831615 0.0033330535016137
3.72 2.7790072055938264 0.016647489631439
3.73 2.796323250388206 0.00058962149785064
3.74 2.817779759617225 0.00011580864252324
3.75 2.8374507078431805 0.00047592152604697
3.76 2.859508129298618 0.00055667515489194
3.77 2.8767656754608466 0.017562261535784
3.78 2.9030892485300015 0.0014471663724387
3.79 2.932224484568931 0.042778017633534
3.8 2.9271837235691898 0.093571288016802
3.81 2.9794899286237198 0.0043882730383819
3.82 2.942271237834972 0.31480362251253
3.83 2.8146508826257066 0.1778444836309
3.84 2.84003007223597 6.7059679829649e-05
3.85 2.9291599263010006 0.0026030068959586
3.86 2.9608065547564535 0.08515095284939
3.87 3.0108650867156332 0.0035936385187407
3.88 3.066871207222546 0.12982311282354
3.89 3.2028688244907277 0.023605948439352
3.9 3.085419776693 0.77725467180487
3.91 2.8290691731851414 0.4082775944071
3.92 2.715632308122254 0.50346328212156
3.93 2.67349607548165 0.12213409894233
3.94 2.744607954034799 0.14554473381193
3.95 2.816902560959945 0.0023044498977636
3.96 2.982870999883165 0.00053217855567388
3.97 2.960484755027371 0.44093128715813
3.98 2.7083727345570154 0.4629250550842
3.99 2.659795955785332 0.0069323460245655
4.0 2.7820052822450188 0.0040209352456125
4.01 2.8476702123177624 1.821035940985e-06
4.02 2.901563148852676 6.4027420640369e-09
4.03 2.9589347487620037 8.7640976135188e-06
4.04 3.014182641801575 0.037783886477754
4.05 3.0867162423991443 0.056412721936821
4.06 3.072349295858936 0.31336802345187
4.07 2.9358645389518947 0.35721857167256
4.08 2.860944015324891 0.19353165098175
4.09 2.9506740059525085 0.001760422266483
4.1 3.124806422774953 0.079063042215371
4.11 3.0203057994999445 0.59875585336633
4.12 2.970045983925784 0.15036967232628
4.13 2.745502069079142 0.93481403118964
4.14 2.522805626633945 0.004028460996009
4.15 2.711488530768463 5.8237721274754e-09
4.16 2.79084322659401 5.8634641669032e-11
4.17 2.8390397291980998 1.9052097620871002e-10
4.18 2.8737719498215455 1.0766699993227e-12
4.19 2.901304169538805 2.7631354990062e-13
4.2 2.924482144650955 3.2950893020573e-12
4.21 2.9448070351654807 4.9438675832316994e-12
4.22 2.9631548985024687 7.646309610189e-13
4.23 2.9800758964356207 4.231626749683599e-12
4.24 2.995935392954795 2.3238963171904e-09
4.25 3.0109869906389717 7.639270113193301e-10
4.26 3.0254131551651824 1.2692641522890998e-13
4.27 3.0393491496032605 6.2341232164114006e-15
4.28 3.052897823320984 2.4158182846113996e-12
4.29 3.066139102752767 1.1320511513053e-08
4.3 3.079136306861679 1.7795882065378e-08
4.31 3.091940478849577 9.3855630210166e-12
4.32 3.1045933782013235 9.6394499109109e-13
4.33 3.1171296471518235 9.981778790526801e-11
4.34 3.1295784137533826 2.3106011617786e-09
4.35 3.141964459453716 1.7768367875491001e-10
4.36 3.154309105997331 5.0217784639065e-11
4.37 3.166630893522152 8.1468877708978e-11
4.38 3.178946112505026 8.669300682219999e-13
4.39 3.1912692172969934 4.589091294321001e-16
4.4 3.2036131568066093 1.6060809593518002e-10
4.41 3.2159896237998344 2.1874410796465e-08
4.42 3.2284093065302275 1.0003145087319e-09
4.43 3.2408820430761343 1.7697382179942e-13
4.44 3.253416943164581 1.2187515406642e-14
4.45 3.2660225466014707 4.4927738068018e-11
4.46 3.278706910751381 2.2642345028489e-09
4.47 3.2914776972556257 7.2967903286066e-09
4.48 3.3043422579123516 1.9266537097198002e-10
4.49 3.317307691016152 1.7157244057442001e-15
4.5 3.330380895704967 3.9479840083818e-18
4.51 3.343568635024017 1.6674570676044e-13
4.52 3.3568775787059626 2.3625605802411996e-12
4.53 3.370314347497401 1.1229479901841e-14
4.54 3.3838855547025486 1.7905428078251e-20
4.55 3.397597845977386 1.2366158801435e-25
4.56 3.4114579382384487 6.5370856565198e-18
4.57 3.425472658463604 1.1592636790129998e-13
4.58 3.4396489831721135 6.9190182607054e-13
4.59 3.4539940793903026 1.8378056962896e-14
4.6 3.4685153479679753 5.0476792346363e-17
4.61 3.483220470219483 1.5659875269578e-14
4.62 3.4981174590210147 1.1056196749211e-14
4.63 3.51321471577373 3.5096865285029e-15
4.64 3.528521095183789 4.3240012880026e-10
4.65 3.5440459664676194 1.7885844070058e-08
4.66 3.5597993288147327 2.4834201553657e-10
4.67 3.575791892501219 3.4584808645812e-15
4.68 3.5920351796842196 2.478352002107e-17
4.69 3.6085416983137897 2.4256200664686e-15
4.7 3.625325104937847 4.8285567818948e-13
4.71 3.6424004222805673 3.2244823341736e-14
4.72 3.6597843111560655 7.223550629970899e-19
4.73 3.6774954161734716 5.4286205186062e-27
4.74 3.6955548124258324 5.9593185384845e-22
4.75 3.7139865927791367 1.1629029391236e-14
